Zeit(s) T_Probe(K) T_Becher(K)
1.944	78.222	77.895
3.811	78.221	77.911
5.635	78.222	77.924
7.473	78.225	77.936
9.283	78.230	77.951
11.088	78.233	77.962
12.900	78.240	77.973
14.721	78.248	77.985
16.562	78.256	77.998
18.388	78.263	78.009
20.193	78.274	78.020
22.047	78.283	78.029
23.862	78.293	78.042
25.680	78.301	78.059
27.489	78.311	78.073
29.293	78.324	78.090
31.104	78.331	78.108
32.914	78.343	78.125
34.736	78.354	78.144
36.558	78.365	78.158
38.363	78.376	78.173
40.189	78.387	78.190
42.003	78.396	78.208
43.840	78.407	78.222
45.652	78.418	78.238
47.453	78.428	78.254
49.272	78.439	78.270
51.097	78.451	78.285
52.907	78.462	78.300
54.756	78.472	78.317
56.591	78.484	78.332
58.396	78.494	78.345
60.216	78.505	78.362
62.025	78.517	78.376
63.837	78.528	78.392
65.657	78.540	78.407
67.465	78.550	78.423
69.279	78.563	78.438
71.087	78.572	78.453
72.904	78.585	78.469
74.711	78.596	78.483
76.535	78.606	78.498
78.340	78.619	78.513
80.159	78.629	78.528
81.965	78.640	78.543
83.778	78.651	78.558
85.583	78.663	78.573
87.399	78.677	78.587
89.207	78.687	78.602
91.030	78.700	78.617
92.845	78.710	78.633
94.666	78.720	78.646
96.470	78.732	78.661
98.282	78.745	78.675
100.090	78.757	78.692
101.896	78.766	78.706
103.708	78.778	78.720
105.509	78.785	78.736
107.315	78.792	78.752
109.304	78.799	78.765
111.195	78.809	78.780
113.086	78.814	78.797
114.984	78.819	78.811
116.879	78.827	78.827
118.814	78.829	78.843
120.704	78.831	78.855
122.512	78.835	78.872
124.323	78.838	78.888
126.137	78.844	78.901
127.944	78.848	78.915
129.754	78.856	78.930
131.578	78.868	78.945
133.383	78.882	78.959
135.189	78.900	78.973
137.042	78.921	78.987
138.854	78.945	79.002
140.673	78.974	79.017
142.480	79.003	79.031
144.284	79.035	79.046
146.093	79.071	79.057
147.891	79.106	79.073
149.700	79.141	79.087
151.511	79.177	79.102
153.340	79.211	79.116
155.187	79.242	79.130
156.993	79.272	79.145
158.799	79.298	79.158
160.609	79.323	79.171
162.417	79.346	79.186
164.218	79.363	79.200
166.030	79.381	79.213
167.836	79.394	79.228
169.643	79.409	79.241
171.453	79.420	79.255
173.262	79.431	79.268
175.065	79.441	79.283
176.873	79.452	79.296
178.675	79.461	79.310
180.482	79.469	79.325
182.290	79.475	79.337
184.097	79.483	79.351
185.902	79.488	79.365
187.712	79.493	79.378
189.524	79.499	79.392
191.330	79.504	79.405
193.136	79.512	79.419
195.125	79.515	79.434
197.018	79.521	79.447
198.911	79.525	79.463
200.808	79.530	79.476
202.696	79.534	79.489
204.591	79.538	79.504
206.491	79.542	79.518
208.299	79.546	79.532
210.105	79.547	79.545
211.962	79.551	79.559
213.766	79.554	79.572
215.573	79.558	79.585
217.379	79.559	79.600
219.188	79.566	79.613
220.995	79.569	79.626
222.801	79.575	79.639
224.608	79.580	79.653
226.422	79.585	79.665
228.227	79.591	79.679
230.030	79.597	79.693
231.851	79.605	79.707
233.672	79.612	79.719
235.479	79.620	79.731
237.287	79.631	79.743
239.098	79.641	79.758
240.902	79.652	79.770
242.705	79.667	79.786
244.514	79.680	79.796
246.322	79.695	79.811
248.124	79.710	79.824
249.938	79.724	79.836
251.744	79.740	79.851
253.551	79.755	79.863
255.363	79.768	79.877
257.170	79.783	79.888
258.974	79.796	79.901
260.791	79.807	79.916
262.590	79.820	79.928
264.395	79.831	79.940
266.204	79.844	79.953
268.016	79.857	79.967
269.823	79.868	79.980
271.629	79.881	79.992
273.438	79.892	80.005
275.245	79.905	80.017
277.053	79.919	80.030
278.862	79.931	80.043
280.668	79.945	80.058
282.474	79.959	80.069
284.281	79.972	80.082
286.088	79.988	80.097
287.893	80.002	80.109
289.705	80.018	80.121
291.508	80.034	80.135
293.312	80.052	80.146
295.124	80.067	80.159
296.930	80.085	80.172
298.739	80.104	80.185
300.547	80.124	80.196
302.348	80.143	80.210
304.154	80.166	80.222
305.964	80.187	80.236
307.768	80.207	80.247
309.575	80.230	80.262
311.379	80.251	80.273
313.181	80.275	80.288
314.991	80.296	80.299
316.799	80.317	80.312
318.645	80.337	80.325
320.448	80.357	80.336
322.257	80.376	80.349
324.065	80.395	80.362
325.872	80.409	80.377
327.672	80.426	80.388
329.482	80.439	80.400
331.289	80.452	80.412
333.097	80.465	80.425
334.905	80.478	80.437
336.755	80.491	80.450
338.569	80.500	80.462
340.371	80.508	80.475
342.176	80.517	80.489
343.986	80.526	80.499
345.793	80.533	80.513
347.599	80.540	80.525
349.424	80.548	80.538
351.227	80.556	80.549
353.031	80.564	80.561
354.841	80.571	80.575
356.644	80.580	80.589
358.450	80.589	80.600
360.257	80.596	80.614
362.061	80.604	80.625
363.866	80.613	80.639
365.675	80.622	80.650
367.485	80.632	80.663
369.289	80.641	80.675
371.098	80.650	80.689
372.900	80.661	80.700
374.706	80.672	80.711
376.516	80.685	80.724
378.320	80.696	80.737
380.125	80.709	80.749
381.937	80.721	80.760
383.744	80.735	80.775
385.547	80.748	80.786
387.356	80.763	80.798
389.170	80.776	80.810
390.968	80.791	80.824
392.781	80.806	80.834
394.592	80.820	80.846
396.397	80.837	80.859
398.205	80.854	80.871
400.018	80.871	80.884
401.836	80.887	80.897
403.639	80.904	80.908
405.448	80.920	80.922
407.308	80.939	80.933
409.115	80.955	80.945
410.924	80.969	80.957
412.727	80.986	80.971
414.539	80.998	80.983
416.342	81.012	80.994
418.146	81.025	81.007
419.971	81.037	81.019
421.780	81.049	81.032
423.588	81.058	81.044
425.391	81.069	81.055
427.200	81.077	81.068
429.008	81.088	81.078
430.812	81.099	81.091
432.620	81.105	81.102
434.427	81.115	81.115
436.233	81.124	81.129
438.089	81.133	81.140
439.899	81.142	81.153
441.708	81.152	81.164
443.510	81.158	81.177
445.387	81.170	81.190
447.190	81.174	81.201
448.994	81.185	81.213
450.802	81.194	81.225
452.610	81.201	81.237
454.415	81.214	81.251
456.224	81.223	81.261
458.029	81.231	81.274
459.838	81.243	81.286
461.649	81.253	81.297
463.455	81.263	81.309
465.262	81.276	81.323
467.069	81.286	81.333
468.880	81.296	81.347
470.692	81.311	81.358
472.502	81.324	81.371
474.305	81.336	81.381
476.112	81.351	81.396
477.922	81.367	81.406
479.734	81.382	81.417
481.544	81.397	81.430
483.346	81.410	81.442
485.159	81.427	81.455
486.965	81.442	81.465
488.781	81.458	81.478
490.596	81.475	81.490
492.433	81.492	81.503
494.242	81.507	81.515
496.044	81.525	81.527
497.852	81.540	81.538
499.661	81.553	81.550
501.465	81.569	81.562
503.273	81.582	81.573
505.082	81.596	81.586
506.885	81.610	81.598
508.692	81.623	81.610
510.502	81.634	81.621
512.322	81.647	81.633
514.129	81.657	81.645
515.941	81.669	81.656
517.751	81.679	81.669
519.557	81.690	81.681
521.367	81.699	81.693
523.177	81.707	81.705
524.983	81.717	81.718
526.792	81.725	81.729
528.605	81.735	81.740
530.455	81.743	81.752
532.266	81.752	81.762
534.067	81.761	81.776
535.877	81.770	81.788
537.689	81.781	81.799
539.494	81.792	81.812
541.317	81.802	81.822
543.125	81.813	81.835
544.926	81.823	81.846
546.730	81.833	81.858
548.538	81.845	81.870
550.402	81.858	81.883
552.213	81.870	81.894
554.018	81.882	81.906
555.826	81.895	81.917
557.633	81.907	81.928
559.435	81.920	81.942
561.248	81.934	81.953
563.121	81.946	81.966
564.929	81.958	81.977
566.735	81.973	81.987
568.545	81.985	82.000
570.351	81.998	82.012
572.157	82.012	82.024
573.966	82.026	82.036
575.774	82.038	82.049
577.581	82.050	82.060
579.391	82.065	82.071
581.274	82.077	82.083
583.080	82.090	82.095
584.887	82.102	82.107
586.689	82.116	82.119
588.498	82.127	82.130
590.314	82.139	82.141
592.119	82.150	82.154
593.928	82.161	82.166
595.732	82.171	82.177
597.540	82.183	82.189
599.348	82.193	82.201
601.156	82.202	82.212
602.957	82.213	82.223
604.765	82.221	82.236
606.575	82.231	82.248
608.382	82.242	82.258
610.188	82.250	82.270
612.000	82.261	82.281
613.810	82.272	82.293
615.620	82.279	82.305
617.429	82.293	82.317
619.242	82.300	82.329
621.046	82.314	82.340
622.852	82.323	82.351
624.662	82.333	82.363
626.469	82.346	82.373
628.272	82.356	82.386
630.082	82.369	82.398
631.886	82.382	82.408
633.693	82.392	82.422
635.507	82.404	82.432
637.312	82.417	82.443
639.118	82.429	82.456
640.928	82.442	82.466
642.730	82.453	82.478
644.539	82.464	82.491
646.351	82.478	82.502
648.159	82.493	82.514
649.965	82.505	82.524
651.774	82.519	82.537
653.578	82.531	82.548
655.386	82.544	82.560
657.199	82.558	82.571
659.007	82.571	82.582
660.813	82.584	82.595
662.624	82.599	82.605
664.433	82.612	82.618
666.235	82.626	82.630
668.045	82.638	82.641
669.854	82.652	82.651
671.663	82.664	82.663
673.477	82.676	82.674
675.288	82.689	82.687
677.096	82.701	82.697
678.903	82.713	82.711
680.715	82.724	82.721
682.524	82.734	82.730
684.329	82.747	82.745
686.138	82.757	82.756
687.947	82.768	82.766
689.751	82.777	82.778
691.557	82.789	82.790
693.370	82.799	82.801
695.178	82.808	82.812
696.983	82.817	82.823
698.795	82.825	82.837
700.596	82.835	82.847
702.400	82.844	82.858
704.211	82.852	82.870
706.062	82.864	82.881
707.868	82.874	82.892
709.674	82.882	82.906
711.485	82.891	82.916
713.332	82.902	82.926
715.138	82.911	82.939
716.938	82.921	82.951
718.744	82.931	82.961
720.557	82.941	82.973
722.365	82.951	82.982
724.211	82.961	82.995
726.015	82.972	83.006
727.826	82.984	83.019
729.711	82.994	83.031
731.516	83.005	83.042
733.326	83.017	83.053
735.132	83.027	83.064
736.936	83.037	83.076
738.748	83.049	83.087
740.633	83.061	83.098
742.450	83.071	83.109
744.257	83.084	83.121
746.063	83.094	83.135
747.867	83.105	83.145
749.689	83.117	83.156
751.501	83.128	83.167
753.308	83.141	83.180
755.115	83.151	83.191
756.926	83.162	83.201
758.730	83.175	83.212
760.580	83.186	83.225
762.383	83.198	83.235
764.190	83.212	83.247
766.002	83.222	83.258
767.806	83.235	83.270
769.613	83.248	83.282
771.427	83.260	83.292
773.229	83.272	83.303
775.034	83.286	83.315
776.846	83.299	83.327
778.663	83.313	83.338
780.469	83.323	83.349
782.281	83.336	83.362
784.090	83.350	83.372
785.894	83.361	83.383
787.703	83.376	83.393
789.514	83.387	83.406
791.316	83.401	83.416
793.126	83.414	83.428
794.938	83.428	83.439
796.746	83.440	83.450
798.548	83.452	83.460
800.422	83.463	83.473
802.227	83.476	83.484
804.040	83.488	83.496
805.845	83.498	83.507
807.650	83.509	83.519
809.460	83.522	83.529
811.270	83.530	83.540
813.075	83.540	83.551
814.884	83.552	83.562
816.693	83.561	83.575
818.501	83.570	83.584
820.308	83.581	83.596
822.120	83.591	83.607
823.926	83.602	83.619
825.732	83.611	83.632
827.542	83.621	83.642
829.346	83.630	83.654
831.153	83.639	83.663
832.958	83.650	83.675
834.766	83.659	83.686
836.577	83.670	83.696
838.386	83.679	83.708
840.211	83.688	83.720
842.016	83.699	83.732
843.823	83.711	83.741
845.635	83.720	83.753
847.439	83.730	83.763
849.245	83.740	83.775
851.050	83.750	83.785
852.858	83.760	83.797
854.664	83.770	83.810
856.471	83.783	83.820
858.277	83.792	83.830
860.084	83.803	83.842
861.895	83.813	83.855
863.706	83.824	83.865
865.509	83.834	83.874
867.324	83.846	83.887
869.172	83.857	83.897
870.981	83.868	83.909
872.785	83.878	83.921
874.593	83.890	83.932
876.399	83.903	83.942
878.206	83.911	83.954
880.014	83.923	83.964
881.823	83.934	83.976
883.626	83.946	83.986
885.432	83.955	83.997
887.242	83.968	84.009
889.047	83.978	84.020
890.854	83.991	84.032
892.660	84.000	84.043
894.463	84.014	84.053
896.293	84.026	84.066
898.098	84.037	84.075
899.900	84.049	84.085
901.706	84.059	84.095
903.515	84.072	84.110
905.320	84.084	84.118
907.127	84.096	84.130
908.933	84.108	84.141
910.742	84.119	84.151
912.547	84.132	84.164
914.357	84.143	84.174
916.168	84.156	84.186
917.992	84.168	84.196
919.796	84.182	84.206
921.609	84.193	84.218
923.419	84.206	84.230
925.220	84.217	84.241
927.032	84.231	84.254
928.835	84.242	84.262
930.640	84.254	84.274
932.450	84.266	84.285
934.259	84.279	84.296
936.106	84.290	84.308
937.911	84.302	84.319
939.719	84.313	84.331
941.530	84.325	84.339
943.335	84.337	84.352
945.143	84.348	84.363
946.950	84.357	84.373
948.808	84.369	84.384
950.615	84.380	84.396
952.424	84.390	84.406
954.274	84.400	84.418
956.082	84.410	84.428
957.893	84.421	84.438
959.744	84.432	84.451
961.554	84.440	84.461
963.361	84.453	84.473
965.160	84.462	84.483
966.972	84.474	84.495
968.775	84.484	84.505
970.579	84.493	84.515
972.429	84.503	84.527
974.238	84.514	84.537
976.040	84.524	84.550
977.845	84.533	84.560
979.655	84.546	84.570
981.464	84.557	84.582
983.272	84.566	84.595
985.083	84.578	84.606
986.891	84.587	84.617
988.695	84.599	84.626
990.501	84.609	84.637
992.308	84.619	84.648
994.114	84.630	84.658
995.932	84.640	84.670
997.743	84.652	84.680
999.551	84.662	84.693
1001.352	84.673	84.704
1003.163	84.684	84.713
1004.966	84.695	84.725
1006.769	84.706	84.736
1008.578	84.717	84.747
1010.382	84.727	84.757
1012.183	84.739	84.769
1013.991	84.752	84.780
1015.797	84.762	84.790
1017.602	84.772	84.801
1019.415	84.784	84.813
1021.220	84.795	84.821
1023.026	84.808	84.832
1024.834	84.819	84.844
1026.641	84.830	84.855
1028.447	84.844	84.865
1030.258	84.853	84.877
1032.062	84.866	84.889
1033.870	84.878	84.899
1035.677	84.888	84.908
1037.483	84.899	84.919
1039.291	84.911	84.931
1041.103	84.921	84.942
1042.914	84.934	84.952
1044.721	84.947	84.962
1046.530	84.959	84.973
1048.341	84.970	84.985
1050.146	84.982	84.995
1051.951	84.992	85.006
1053.759	85.004	85.016
1055.568	85.015	85.027
1057.373	85.028	85.040
1059.185	85.037	85.049
1060.985	85.050	85.061
1062.791	85.061	85.071
1064.603	85.072	85.081
1066.406	85.083	85.094
1068.213	85.093	85.103
1070.020	85.103	85.114
1071.828	85.114	85.125
1073.634	85.128	85.135
1075.443	85.137	85.147
1077.251	85.148	85.157
1079.060	85.159	85.169
1080.949	85.172	85.178
1082.755	85.181	85.189
1084.557	85.192	85.201
1086.367	85.204	85.210
1088.172	85.213	85.222
1089.978	85.224	85.231
1091.787	85.235	85.243
1093.597	85.244	85.254
1095.404	85.258	85.262
1097.214	85.267	85.275
1099.062	85.278	85.287
1100.876	85.288	85.297
1102.681	85.298	85.308
1104.484	85.310	85.318
1106.296	85.320	85.328
1108.097	85.332	85.340
1109.903	85.342	85.350
1111.715	85.352	85.361
1113.521	85.363	85.372
1115.325	85.372	85.383
1117.135	85.384	85.394
1118.936	85.394	85.405
1120.748	85.405	85.415
1122.555	85.415	85.425
1124.358	85.426	85.436
1126.164	85.436	85.448
1127.974	85.447	85.458
1129.873	85.458	85.468
1131.681	85.469	85.480
1133.494	85.479	85.490
1135.300	85.491	85.500
1137.108	85.501	85.510
1138.919	85.512	85.522
1140.727	85.522	85.532
1142.536	85.534	85.544
1144.342	85.544	85.554
1146.150	85.554	85.565
1148.005	85.564	85.576
1149.808	85.576	85.586
1151.612	85.585	85.597
1153.421	85.596	85.609
1155.224	85.607	85.619
1157.032	85.617	85.630
1158.841	85.628	85.641
1160.641	85.639	85.651
1162.446	85.649	85.661
1164.257	85.659	85.673
1166.064	85.671	85.683
1167.869	85.681	85.693
1169.673	85.691	85.703
1171.484	85.702	85.716
1173.290	85.713	85.725
1175.101	85.723	85.736
1176.903	85.732	85.747
1178.709	85.744	85.756
1180.516	85.753	85.768
1182.323	85.765	85.779
1184.128	85.776	85.792
1185.940	85.787	85.801
1187.750	85.797	85.812
1189.557	85.806	85.820
1191.364	85.818	85.833
1193.174	85.828	85.843
1194.976	85.837	85.854
1196.785	85.849	85.863
1198.599	85.859	85.875
1200.406	85.871	85.884
1202.210	85.880	85.896
1204.023	85.891	85.906
1205.824	85.902	85.917
1207.631	85.909	85.927
1209.440	85.922	85.938
1211.247	85.935	85.948
1213.055	85.944	85.961
1214.861	85.956	85.971
1216.667	85.967	85.982
1218.470	85.975	85.992
1220.278	85.985	86.003
1222.150	85.997	86.014
1223.962	86.007	86.024
1225.766	86.017	86.035
1227.571	86.029	86.046
1229.382	86.037	86.056
1231.187	86.050	86.068
1232.993	86.061	86.079
1234.799	86.070	86.088
1236.606	86.081	86.099
1238.413	86.092	86.110
1240.222	86.101	86.119
1242.026	86.112	86.132
1243.834	86.124	86.143
1245.643	86.134	86.153
1247.457	86.144	86.163
1249.260	86.153	86.175
1251.069	86.165	86.184
1252.883	86.177	86.197
1254.683	86.186	86.205
1256.491	86.196	86.216
1258.302	86.207	86.227
1260.116	86.218	86.238
1261.924	86.228	86.249
1263.733	86.237	86.260
1265.540	86.248	86.271
1267.347	86.258	86.282
1269.156	86.270	86.293
1271.040	86.280	86.303
1272.846	86.291	86.313
1274.655	86.302	86.324
1276.484	86.313	86.334
1278.291	86.323	86.346
1280.097	86.335	86.356
1281.904	86.344	86.367
1283.712	86.354	86.378
1285.518	86.365	86.389
1287.330	86.374	86.399
1289.137	86.385	86.409
1290.944	86.395	86.420
1292.755	86.405	86.431
1294.564	86.417	86.442
1296.376	86.429	86.452
1298.200	86.437	86.463
1300.009	86.447	86.473
1301.812	86.457	86.484
1303.615	86.469	86.494
1305.426	86.479	86.505
1307.229	86.489	86.516
1309.038	86.499	86.527
1310.847	86.510	86.538
1312.653	86.520	86.550
1314.462	86.532	86.560
1316.272	86.542	86.570
1318.082	86.552	86.581
1319.902	86.560	86.592
1321.706	86.572	86.602
1323.538	86.584	86.613
1325.348	86.594	86.625
1327.151	86.602	86.633
1328.956	86.614	86.644
1330.765	86.625	86.656
1332.569	86.633	86.665
1334.375	86.644	86.676
1336.188	86.655	86.688
1337.995	86.666	86.699
1339.811	86.676	86.708
1341.663	86.688	86.719
1343.469	86.697	86.730
1345.281	86.707	86.741
1347.087	86.717	86.753
1348.891	86.728	86.764
1350.702	86.740	86.774
1352.502	86.748	86.784
1354.312	86.759	86.794
1356.126	86.769	86.804
1357.932	86.780	86.816
1359.740	86.789	86.826
1361.549	86.800	86.837
1363.351	86.808	86.847
1365.158	86.822	86.859
1366.971	86.830	86.869
1368.779	86.841	86.880
1370.584	86.851	86.890
1372.395	86.862	86.901
1374.201	86.871	86.910
1376.007	86.883	86.922
1377.814	86.892	86.931
1379.636	86.903	86.944
1381.441	86.912	86.951
1383.248	86.924	86.964
1385.060	86.933	86.975
1386.864	86.945	86.985
1388.672	86.954	86.995
1390.486	86.964	87.005
1392.367	86.975	87.017
1394.173	86.985	87.028
1395.981	86.995	87.038
1397.787	87.005	87.050
1399.591	87.016	87.059
1401.401	87.026	87.069
1403.208	87.036	87.081
1405.016	87.048	87.091
1406.829	87.056	87.102
1408.635	87.066	87.111
1410.454	87.078	87.123
1412.262	87.088	87.133
1414.072	87.099	87.145
1415.884	87.108	87.154
1417.685	87.116	87.165
1419.495	87.127	87.176
1421.299	87.138	87.186
1423.102	87.148	87.197
1424.912	87.158	87.206
1426.720	87.170	87.217
1428.525	87.179	87.228
1430.336	87.187	87.237
1432.143	87.199	87.248
1433.946	87.210	87.260
1435.757	87.219	87.270
1437.567	87.230	87.281
1439.377	87.238	87.290
1441.186	87.249	87.303
1442.996	87.258	87.313
1444.802	87.272	87.323
1446.610	87.279	87.334
1448.423	87.290	87.344
1450.227	87.301	87.354
1452.033	87.311	87.365
1453.842	87.321	87.376
1455.645	87.332	87.387
1457.455	87.341	87.398
1459.265	87.351	87.408
1461.070	87.359	87.418
1462.876	87.371	87.428
1464.687	87.380	87.438
1466.493	87.393	87.449
1468.299	87.401	87.460
1470.111	87.409	87.470
1471.918	87.421	87.481
1473.726	87.431	87.491
1475.539	87.442	87.503
1477.351	87.452	87.513
1479.187	87.460	87.522
1480.998	87.472	87.534
1482.808	87.481	87.545
1484.616	87.492	87.554
1486.418	87.501	87.564
1488.227	87.511	87.575
1490.038	87.520	87.586
1491.842	87.530	87.597
1493.646	87.543	87.606
1495.459	87.551	87.617
1497.261	87.563	87.628
1499.069	87.571	87.639
1500.891	87.582	87.648
1502.702	87.592	87.659
1504.504	87.602	87.670
1506.311	87.611	87.679
1508.124	87.621	87.690
1509.928	87.632	87.701
1511.732	87.642	87.711
1513.539	87.652	87.722
1515.351	87.662	87.732
1517.202	87.669	87.742
1519.010	87.682	87.755
1520.818	87.690	87.764
1522.631	87.702	87.774
1524.435	87.709	87.785
1526.243	87.721	87.794
1528.052	87.731	87.807
1529.852	87.739	87.815
1531.667	87.750	87.826
1533.477	87.760	87.836
1535.282	87.769	87.847
1537.083	87.779	87.858
1538.894	87.790	87.868
1540.695	87.797	87.878
1542.505	87.809	87.888
1544.318	87.819	87.900
1546.125	87.828	87.910
1547.933	87.836	87.919
1549.746	87.850	87.932
1551.555	87.858	87.941
1553.363	87.867	87.953
1555.173	87.876	87.962
1556.983	87.889	87.972
1558.786	87.897	87.984
1560.593	87.907	87.993
1562.402	87.918	88.003
1564.206	87.927	88.016
1566.012	87.934	88.025
1567.825	87.947	88.035
1569.632	87.955	88.045
1571.437	87.965	88.055
1573.249	87.973	88.065
1575.055	87.984	88.077
1576.857	87.995	88.088
1578.671	88.006	88.098
1580.481	88.014	88.107
1582.291	88.024	88.119
1584.103	88.032	88.127
1585.916	88.045	88.140
1587.721	88.050	88.149
1589.528	88.061	88.159
1591.339	88.072	88.170
1593.143	88.079	88.181
1594.951	88.090	88.190
1596.761	88.101	88.201
1598.633	88.109	88.212
1600.439	88.120	88.222
1602.244	88.128	88.233
1604.093	88.136	88.243
1605.899	88.147	88.251
1607.707	88.157	88.266
1609.520	88.167	88.274
1611.371	88.177	88.284
1613.179	88.186	88.295
1614.986	88.197	88.304
1616.794	88.205	88.316
1618.607	88.217	88.325
1620.437	88.226	88.336
1622.245	88.236	88.347
1624.051	88.242	88.356
1625.862	88.253	88.367
1627.673	88.261	88.379
1629.494	88.271	88.388
1631.304	88.282	88.398
1633.111	88.290	88.409
1634.916	88.300	88.419
1636.724	88.308	88.430
1638.535	88.319	88.439
1640.341	88.327	88.450
1642.147	88.337	88.459
1643.957	88.346	88.470
1645.761	88.355	88.482
1647.568	88.366	88.491
1649.382	88.376	88.501
1651.186	88.383	88.513
1652.991	88.394	88.523
1654.799	88.403	88.532
1656.607	88.410	88.543
1658.412	88.421	88.553
1660.223	88.430	88.564
1662.032	88.438	88.573
1663.838	88.448	88.584
1665.647	88.457	88.596
1667.451	88.467	88.604
1669.257	88.474	88.615
1671.067	88.485	88.626
1672.877	88.495	88.636
1674.679	88.503	88.645
1676.487	88.513	88.655
1678.299	88.521	88.666
1680.102	88.531	88.676
1681.915	88.541	88.689
1683.724	88.547	88.697
1685.528	88.557	88.708
1687.339	88.565	88.717
1689.150	88.576	88.728
1690.956	88.584	88.739
1692.765	88.593	88.748
1694.576	88.602	88.757
1696.377	88.612	88.769
1698.182	88.620	88.779
1699.992	88.629	88.788
1701.798	88.639	88.798
1703.606	88.648	88.808
1705.416	88.655	88.819
1707.221	88.665	88.829
1709.026	88.674	88.840
1710.876	88.681	88.851
1712.682	88.691	88.861
1714.494	88.701	88.871
1716.303	88.710	88.881
1718.108	88.719	88.891
1719.919	88.725	88.904
1721.723	88.737	88.910
1723.528	88.743	88.924
1725.339	88.753	88.933
1727.145	88.760	88.944
1728.951	88.771	88.953
1730.762	88.778	88.961
1732.568	88.789	88.974
1734.375	88.796	88.983
1736.185	88.804	88.992
1737.989	88.814	89.004
1739.798	88.822	89.014
1741.610	88.832	89.025
1743.414	88.838	89.033
1745.224	88.848	89.044
1747.033	88.856	89.055
1748.840	88.865	89.065
1750.648	88.873	89.074
1752.458	88.882	89.084
1754.269	88.891	89.096
1756.084	88.900	89.105
1757.885	88.908	89.116
1759.695	88.916	89.126
1761.505	88.923	89.136
1763.311	88.932	89.146
1765.121	88.940	89.156
1766.924	88.949	89.165
1768.728	88.958	89.175
1770.538	88.966	89.186
1772.347	88.975	89.196
1774.150	88.981	89.206
1775.961	88.990	89.217
1777.768	88.997	89.227
1779.572	89.007	89.236
1781.383	89.014	89.246
1783.188	89.023	89.256
1784.996	89.031	89.267
1786.805	89.038	89.276
1788.612	89.048	89.288
1790.419	89.055	89.298
1792.228	89.064	89.308
1794.037	89.070	89.318
1795.844	89.080	89.328
1797.649	89.087	89.338
1799.461	89.096	89.347
1801.268	89.103	89.358
1803.078	89.111	89.368
1804.890	89.121	89.380
1806.705	89.129	89.390
1808.505	89.135	89.399
1810.316	89.143	89.408
1812.126	89.150	89.418
1813.931	89.159	89.429
1815.741	89.166	89.436
1817.552	89.175	89.449
1819.388	89.183	89.460
1821.189	89.192	89.469
1822.999	89.199	89.478
1824.811	89.207	89.490
1826.617	89.214	89.499
1828.424	89.223	89.510
1830.233	89.229	89.519
1832.042	89.237	89.529
1833.848	89.244	89.540
1835.658	89.253	89.548
1837.462	89.259	89.560
1839.270	89.268	89.571
1841.079	89.274	89.578
1842.886	89.281	89.587
1844.692	89.292	89.600
1846.504	89.298	89.609
1848.384	89.306	89.620
1850.188	89.314	89.632
1852.000	89.321	89.641
1853.807	89.328	89.649
1855.614	89.336	89.660
1857.423	89.343	89.669
1859.230	89.351	89.681
1861.037	89.357	89.690
1862.845	89.364	89.701
1864.648	89.373	89.709
1866.455	89.382	89.721
1868.290	89.388	89.730
1870.101	89.397	89.741
1871.907	89.402	89.751
1873.715	89.410	89.758
1875.525	89.418	89.770
1877.331	89.425	89.782
1879.138	89.432	89.791
1880.949	89.439	89.799
1882.764	89.446	89.809
1884.567	89.455	89.821
1886.423	89.462	89.828
1888.230	89.470	89.839
1890.038	89.476	89.849
1891.845	89.485	89.861
1893.652	89.492	89.870
1895.463	89.498	89.878
1897.271	89.507	89.889
1899.077	89.514	89.899
1900.884	89.520	89.910
1902.693	89.527	89.919
1904.499	89.537	89.929
1906.303	89.542	89.939
1908.112	89.550	89.948
1909.921	89.557	89.960
1911.728	89.563	89.967
1913.552	89.572	89.977
1915.360	89.581	89.990
1917.165	89.585	90.000
1918.974	89.594	90.010
1920.788	89.600	90.018
1922.599	89.608	90.028
1924.404	89.617	90.037
1926.208	89.621	90.049
1928.011	89.630	90.057
1929.820	89.637	90.068
1931.627	89.644	90.077
1933.433	89.650	90.087
1935.239	89.658	90.097
1937.049	89.666	90.107
1938.859	89.673	90.117
1940.664	89.682	90.126
1942.474	89.687	90.136
1944.279	89.695	90.147
1946.085	89.702	90.157
1947.891	89.709	90.166
1949.697	89.717	90.177
1951.502	89.723	90.186
1953.310	89.730	90.198
1955.118	89.739	90.204
1956.924	89.747	90.216
1958.736	89.752	90.225
1960.544	89.763	90.236
1962.347	89.768	90.245
1964.160	89.776	90.254
1965.974	89.783	90.266
1967.808	89.793	90.274
1969.613	89.796	90.285
1971.423	89.807	90.293
1973.234	89.813	90.303
1975.042	89.822	90.312
1976.848	89.829	90.323
1978.657	89.836	90.335
1980.458	89.844	90.342
1982.265	89.852	90.352
1984.077	89.858	90.361
1985.882	89.868	90.372
1987.689	89.874	90.382
1989.496	89.880	90.394
1991.307	89.889	90.401
1993.113	89.896	90.412
1994.924	89.904	90.421
1996.732	89.912	90.430
1998.535	89.920	90.441
2000.345	89.927	90.450
2002.154	89.936	90.459
2003.958	89.942	90.469
2005.769	89.949	90.479
2007.582	89.958	90.489
2009.390	89.968	90.500
2011.229	89.973	90.508
2013.036	89.982	90.517
2014.843	89.988	90.529
2016.649	89.999	90.538
2018.454	90.005	90.548
2020.266	90.013	90.557
2022.070	90.020	90.567
2023.879	90.029	90.576
2025.696	90.037	90.587
2027.507	90.044	90.597
2029.315	90.053	90.605
2031.123	90.062	90.614
2032.933	90.068	90.625
2034.772	90.077	90.633
2036.580	90.085	90.644
2038.387	90.094	90.653
2040.215	90.101	90.664
2042.029	90.111	90.673
2043.838	90.117	90.684
2045.641	90.127	90.692
2047.450	90.134	90.701
2049.257	90.142	90.712
2051.062	90.152	90.722
2052.874	90.159	90.731
2054.685	90.168	90.741
2056.489	90.175	90.751
2058.300	90.184	90.759
2060.130	90.192	90.769
2061.980	90.201	90.779
2063.793	90.210	90.787
2065.661	90.219	90.798
2067.472	90.227	90.809
2069.275	90.234	90.819
2071.082	90.242	90.827
2072.893	90.253	90.836
2074.701	90.261	90.848
2076.509	90.269	90.857
2078.317	90.278	90.867
2080.167	90.285	90.875
2081.974	90.295	90.886
2083.776	90.304	90.895
2085.582	90.312	90.906
2087.389	90.321	90.916
2089.196	90.330	90.926
2091.006	90.338	90.933
2092.813	90.348	90.943
2094.620	90.355	90.952
2096.426	90.365	90.963
2098.240	90.374	90.973
2100.049	90.382	90.981
2101.851	90.392	90.991
2103.662	90.400	90.999
2105.466	90.410	91.010
2107.271	90.419	91.019
2109.084	90.427	91.029
2110.893	90.437	91.040
2112.699	90.444	91.049
2114.509	90.454	91.057
2116.315	90.463	91.068
2118.121	90.473	91.077
2119.932	90.481	91.087
2121.739	90.490	91.095
2123.595	90.500	91.105
2125.403	90.508	91.115
2127.209	90.518	91.126
2129.019	90.526	91.134
2130.835	90.537	91.144
2132.641	90.545	91.153
2134.447	90.554	91.162
2136.254	90.564	91.174
2138.058	90.574	91.182
2139.864	90.582	91.192
2141.673	90.592	91.203
2143.474	90.600	91.212
2145.282	90.610	91.221
2147.095	90.620	91.229
2148.900	90.629	91.238
2150.707	90.641	91.250
2152.516	90.649	91.259
2154.317	90.656	91.268
2156.125	90.666	91.278
2157.938	90.675	91.288
2159.748	90.687	91.295
2161.554	90.695	91.307
2163.366	90.705	91.316
2165.172	90.716	91.326
2166.980	90.723	91.332
2168.793	90.733	91.344
2170.604	90.742	91.354
2172.411	90.752	91.363
2174.232	90.761	91.372
2176.041	90.771	91.383
2177.848	90.779	91.392
2179.658	90.789	91.400
2181.466	90.799	91.409
2183.275	90.808	91.420
2185.081	90.817	91.430
2186.889	90.828	91.437
2188.698	90.837	91.448
2190.508	90.846	91.457
2192.311	90.858	91.467
2194.124	90.868	91.476
2195.931	90.874	91.486
2197.736	90.888	91.494
2199.546	90.895	91.505
2201.352	90.904	91.515
2203.159	90.914	91.524
2204.968	90.924	91.533
2206.779	90.933	91.543
2208.584	90.943	91.552
2210.393	90.952	91.563
2212.195	90.964	91.571
2214.004	90.973	91.581
2215.818	90.982	91.592
2217.629	90.992	91.600
2219.431	91.003	91.610
2221.241	91.012	91.618
2223.050	91.020	91.628
2224.860	91.033	91.637
2226.666	91.040	91.647
2228.473	91.050	91.656
2230.281	91.060	91.667
2232.090	91.070	91.674
2233.897	91.079	91.683
2235.703	91.091	91.695
2237.551	91.098	91.704
2239.354	91.109	91.714
2241.167	91.119	91.721
2242.979	91.128	91.732
2244.784	91.139	91.742
2246.592	91.148	91.750
2248.404	91.159	91.759
2250.208	91.168	91.770
2252.015	91.178	91.779
2253.827	91.187	91.788
2255.630	91.198	91.796
2257.438	91.207	91.807
2259.248	91.219	91.816
